# # angle Zxx Zyy Zzz
1.000000000000000000e+01 3.401699999999999724e-01 -5.814399999999999569e-01 -5.968900000000000317e-01
2.000000000000000000e+01 1.996999999999999886e-01 -5.816999999999999948e-01 -6.448300000000000143e-01
3.000000000000000000e+01 3.214999999999999802e-02 -5.506299999999999528e-01 -6.873700000000000365e-01
4.000000000000000000e+01 -1.185400000000000065e-01 -5.006599999999999939e-01 -7.167000000000000037e-01
5.000000000000000000e+01 -2.291100000000000081e-01 -4.545299999999999896e-01 -7.356800000000000006e-01
6.000000000000000000e+01 -3.019200000000000217e-01 -4.244100000000000095e-01 -7.493900000000000006e-01
7.000000000000000000e+01 -3.504599999999999937e-01 -4.114599999999999924e-01 -7.616100000000000092e-01
8.000000000000000000e+01 -3.889500000000000179e-01 -4.137600000000000167e-01 -7.757600000000000051e-01
9.000000000000000000e+01 -4.266499999999999737e-01 -4.266499999999999737e-01 -7.921099999999999808e-01
1.000000000000000000e+02 -4.710699999999999887e-01 -4.512999999999999790e-01 -8.122200000000000530e-01
1.100000000000000000e+02 -5.257699999999999596e-01 -4.877799999999999914e-01 -8.350400000000000045e-01
1.200000000000000000e+02 -5.924199999999999466e-01 -5.376900000000000013e-01 -8.595599999999999907e-01
1.300000000000000000e+02 -6.751200000000000534e-01 -6.058999999999999941e-01 -8.868599999999999817e-01
1.400000000000000000e+02 -7.734400000000000164e-01 -6.920100000000000140e-01 -9.154099999999999460e-01
1.500000000000000000e+02 -8.813100000000000378e-01 -7.902799999999999825e-01 -9.427600000000000424e-01
1.600000000000000000e+02 -9.852199999999999847e-01 -8.878700000000000481e-01 -9.671300000000000452e-01
1.700000000000000000e+02 -1.062929999999999930e+00 -9.619799999999999462e-01 -9.840299999999999603e-01
1.800000000000000000e+02 -1.092510000000000092e+00 -9.890299999999999647e-01 -9.890299999999999647e-01
